[Info]
Number of Regions=0001
Version=1.3.1

[Region 1]
Region Name=C1s
Dimension 1 name=Binding Energy [eV]
Dimension 1 size=251
Dimension 1 scale=300 299.9 299.8 299.7 299.6 299.5 299.4 299.3 299.2 299.1 299 298.9 298.8 298.7 298.6 298.5 298.4 298.3 298.2 298.1 298 297.9 297.8 297.7 297.6 297.5 297.4 297.3 297.2 297.1 297 296.9 296.8 296.7 296.6 296.5 296.4 296.3 296.2 296.1 296 295.9 295.8 295.7 295.6 295.5 295.4 295.3 295.2 295.1 295 294.9 294.8 294.7 294.6 294.5 294.4 294.3 294.2 294.1 294 293.9 293.8 293.7 293.6 293.5 293.4 293.3 293.2 293.1 293 292.9 292.8 292.7 292.6 292.5 292.4 292.3 292.2 292.1 292 291.9 291.8 291.7 291.6 291.5 291.4 291.3 291.2 291.1 291 290.9 290.8 290.7 290.6 290.5 290.4 290.3 290.2 290.1 290 289.9 289.8 289.7 289.6 289.5 289.4 289.3 289.2 289.1 289 288.9 288.8 288.7 288.6 288.5 288.4 288.3 288.2 288.1 288 287.9 287.8 287.7 287.6 287.5 287.4 287.3 287.2 287.1 287 286.9 286.8 286.7 286.6 286.5 286.4 286.3 286.2 286.1 286 285.9 285.8 285.7 285.6 285.5 285.4 285.3 285.2 285.1 285 284.9 284.8 284.7 284.6 284.5 284.4 284.3 284.2 284.1 284 283.9 283.8 283.7 283.6 283.5 283.4 283.3 283.2 283.1 283 282.9 282.8 282.7 282.6 282.5 282.4 282.3 282.2 282.1 282 281.9 281.8 281.7 281.6 281.5 281.4 281.3 281.2 281.1 281 280.9 280.8 280.7 280.6 280.5 280.4 280.3 280.2 280.1 280 279.9 279.8 279.7 279.6 279.5 279.4 279.3 279.2 279.1 279 278.9 278.8 278.7 278.6 278.5 278.4 278.3 278.2 278.1 278 277.9 277.8 277.7 277.6 277.5 277.4 277.3 277.2 277.1 277 276.9 276.8 276.7 276.6 276.5 276.4 276.3 276.2 276.1 276 275.9 275.8 275.7 275.6 275.5 275.4 275.3 275.2 275.1 275

[Info 1]
Region Name=C1s
Lens Mode=Transmission
Pass Energy=200
Number of Sweeps=10
Excitation Energy=1486.6
Energy Scale=Binding
Acquisition Mode=Swept
Energy Unit=Kinetic
Center Energy=1199.1
Low Energy=1186.6
High Energy=1211.6
Energy Step=0.1
Step Time=96
Detector First X-Channel=1
Detector Last X-Channel=1064
Detector First Y-Channel=1
Detector Last Y-Channel=1000
Number of Slices=1
File=C:\Users\Scienta Omicron\Desktop\DATA\ErikX3\S3_2H_0002.ibw,.txt
Sequence=D:\SES_1.9.2_Win64\sequences\Rebecka.seq
Spectrum Name=S3_2H_C1s002
Instrument=xde-12125
Location=UU
User=Rebecka
Sample=AgS
Comments=Al 250 W;
Date=2025-03-31
Time=18:43:59
Time per Spectrum Channel=149.76
DetectorMode=ADC
ThetaX=0
ThetaY=0
[Run Mode Information 1]

[User Interface Information 1]
[Manipulator 1]


[Data 1]
 3.00000000000000E+0002  1.09650541015625E+0005
 2.99900000000000E+0002  1.07379384765625E+0005
 2.99800000000000E+0002  1.04651985351563E+0005
 2.99700000000000E+0002  1.03970363281250E+0005
 2.99600000000000E+0002  1.07211924804688E+0005
 2.99500000000000E+0002  1.07629854492187E+0005
 2.99400000000000E+0002  1.09665778320312E+0005
 2.99300000000000E+0002  1.09210927734375E+0005
 2.99200000000000E+0002  1.06933418945312E+0005
 2.99100000000000E+0002  1.09285651367188E+0005
 2.99000000000000E+0002  1.14694594726563E+0005
 2.98900000000000E+0002  1.08822607421875E+0005
 2.98800000000000E+0002  1.02647865234375E+0005
 2.98700000000000E+0002  1.12234161132812E+0005
 2.98600000000000E+0002  1.13114601562500E+0005
 2.98500000000000E+0002  1.12191736328125E+0005
 2.98400000000000E+0002  1.10487849609375E+0005
 2.98300000000000E+0002  1.04687531250000E+0005
 2.98200000000000E+0002  1.10122325195312E+0005
 2.98100000000000E+0002  1.10185834960938E+0005
 2.98000000000000E+0002  1.06027068359375E+0005
 2.97900000000000E+0002  1.07865203125000E+0005
 2.97800000000000E+0002  1.12928770507813E+0005
 2.97700000000000E+0002  1.14079482421875E+0005
 2.97600000000000E+0002  1.09827291992188E+0005
 2.97500000000000E+0002  1.16755584960937E+0005
 2.97400000000000E+0002  1.12532604492188E+0005
 2.97300000000000E+0002  1.12392671875000E+0005
 2.97200000000000E+0002  1.10741922851563E+0005
 2.97100000000000E+0002  1.13206927734375E+0005
 2.97000000000000E+0002  1.08781416992187E+0005
 2.96900000000000E+0002  1.08168283203125E+0005
 2.96800000000000E+0002  1.06798008789062E+0005
 2.96700000000000E+0002  1.11145534179688E+0005
 2.96600000000000E+0002  1.05384257812500E+0005
 2.96500000000000E+0002  1.09154000976562E+0005
 2.96400000000000E+0002  1.07043865234375E+0005
 2.96300000000000E+0002  1.04431247070312E+0005
 2.96200000000000E+0002  1.03027056640625E+0005
 2.96100000000000E+0002  1.02076700195312E+0005
 2.96000000000000E+0002  1.10636449218750E+0005
 2.95900000000000E+0002  1.12291421875000E+0005
 2.95800000000000E+0002  1.08316432617187E+0005
 2.95700000000000E+0002  1.07821819335937E+0005
 2.95600000000000E+0002  1.07532662109375E+0005
 2.95500000000000E+0002  1.04251168945312E+0005
 2.95400000000000E+0002  1.04680480468750E+0005
 2.95300000000000E+0002  1.05335918945312E+0005
 2.95200000000000E+0002  1.06010336914063E+0005
 2.95100000000000E+0002  1.09284530273437E+0005
 2.95000000000000E+0002  1.02841521484375E+0005
 2.94900000000000E+0002  1.08239402343750E+0005
 2.94800000000000E+0002  1.07206722656250E+0005
 2.94700000000000E+0002  1.01667361328125E+0005
 2.94600000000000E+0002  1.03667456054688E+0005
 2.94500000000000E+0002  1.06886017578125E+0005
 2.94400000000000E+0002  1.02821086914063E+0005
 2.94300000000000E+0002  1.04882239257813E+0005
 2.94200000000000E+0002  1.08469457031250E+0005
 2.94100000000000E+0002  1.04035938476562E+0005
 2.94000000000000E+0002  1.04078980468750E+0005
 2.93900000000000E+0002  1.08141890625000E+0005
 2.93800000000000E+0002  1.06888717773437E+0005
 2.93700000000000E+0002  1.10857559570312E+0005
 2.93600000000000E+0002  1.06577519531250E+0005
 2.93500000000000E+0002  1.02404659179688E+0005
 2.93400000000000E+0002  1.04788867187500E+0005
 2.93300000000000E+0002  1.00436450683594E+0005
 2.93200000000000E+0002  1.06621970703125E+0005
 2.93100000000000E+0002  1.04439588867188E+0005
 2.93000000000000E+0002  1.06776194335937E+0005
 2.92900000000000E+0002  1.07887829101562E+0005
 2.92800000000000E+0002  1.05278333984375E+0005
 2.92700000000000E+0002  1.01141324218750E+0005
 2.92600000000000E+0002  1.03979311523438E+0005
 2.92500000000000E+0002  1.09499076171875E+0005
 2.92400000000000E+0002  1.05776479492188E+0005
 2.92300000000000E+0002  1.08822916015625E+0005
 2.92200000000000E+0002  1.07857272460937E+0005
 2.92100000000000E+0002  1.09841965820313E+0005
 2.92000000000000E+0002  1.06769042968750E+0005
 2.91900000000000E+0002  1.04598633789063E+0005
 2.91800000000000E+0002  1.06363811523438E+0005
 2.91700000000000E+0002  1.08562758789062E+0005
 2.91600000000000E+0002  1.05740205078125E+0005
 2.91500000000000E+0002  1.05253827148438E+0005
 2.91400000000000E+0002  1.03720789062500E+0005
 2.91300000000000E+0002  1.04699403320312E+0005
 2.91200000000000E+0002  1.05885759765625E+0005
 2.91100000000000E+0002  1.06962645507812E+0005
 2.91000000000000E+0002  1.04785753906250E+0005
 2.90900000000000E+0002  1.05885315429688E+0005
 2.90800000000000E+0002  1.05306173828125E+0005
 2.90700000000000E+0002  1.10918419921875E+0005
 2.90600000000000E+0002  1.06005561523437E+0005
 2.90500000000000E+0002  1.02357328125000E+0005
 2.90400000000000E+0002  1.02009858398437E+0005
 2.90300000000000E+0002  1.07355119140625E+0005
 2.90200000000000E+0002  1.07739752929688E+0005
 2.90100000000000E+0002  1.08682286132813E+0005
 2.90000000000000E+0002  1.04109354492187E+0005
 2.89900000000000E+0002  1.02631928710937E+0005
 2.89800000000000E+0002  1.03573243164063E+0005
 2.89700000000000E+0002  1.02368738281250E+0005
 2.89600000000000E+0002  1.04223591796875E+0005
 2.89500000000000E+0002  1.04217900390625E+0005
 2.89400000000000E+0002  1.04052668945312E+0005
 2.89300000000000E+0002  1.02843968750000E+0005
 2.89200000000000E+0002  9.77468867187500E+0004
 2.89100000000000E+0002  1.02444754882812E+0005
 2.89000000000000E+0002  1.03503852539063E+0005
 2.88900000000000E+0002  1.02678281250000E+0005
 2.88800000000000E+0002  1.09687580078125E+0005
 2.88700000000000E+0002  1.06236525390625E+0005
 2.88600000000000E+0002  1.04276324218750E+0005
 2.88500000000000E+0002  1.07468284179688E+0005
 2.88400000000000E+0002  1.08038564453125E+0005
 2.88300000000000E+0002  1.07422047851563E+0005
 2.88200000000000E+0002  1.09916415039063E+0005
 2.88100000000000E+0002  1.11575943359375E+0005
 2.88000000000000E+0002  1.21609107421875E+0005
 2.87900000000000E+0002  1.23506745117188E+0005
 2.87800000000000E+0002  1.25440984375000E+0005
 2.87700000000000E+0002  1.30181316406250E+0005
 2.87600000000000E+0002  1.31969267578125E+0005
 2.87500000000000E+0002  1.35351596679688E+0005
 2.87400000000000E+0002  1.44111657226562E+0005
 2.87300000000000E+0002  1.47605660156250E+0005
 2.87200000000000E+0002  1.45897180664062E+0005
 2.87100000000000E+0002  1.50438347656250E+0005
 2.87000000000000E+0002  1.47060604492187E+0005
 2.86900000000000E+0002  1.42144190429687E+0005
 2.86800000000000E+0002  1.34099415039063E+0005
 2.86700000000000E+0002  1.28689807617188E+0005
 2.86600000000000E+0002  1.24662003906250E+0005
 2.86500000000000E+0002  1.24150352539063E+0005
 2.86400000000000E+0002  1.16213260742187E+0005
 2.86300000000000E+0002  1.12689586914062E+0005
 2.86200000000000E+0002  1.14440909179688E+0005
 2.86100000000000E+0002  1.17736799804687E+0005
 2.86000000000000E+0002  1.18699868164062E+0005
 2.85900000000000E+0002  1.20281865234375E+0005
 2.85800000000000E+0002  1.24107819335938E+0005
 2.85700000000000E+0002  1.26663096679688E+0005
 2.85600000000000E+0002  1.28696333007812E+0005
 2.85500000000000E+0002  1.28005571289063E+0005
 2.85400000000000E+0002  1.33897549804688E+0005
 2.85300000000000E+0002  1.38733526367188E+0005
 2.85200000000000E+0002  1.40880872070312E+0005
 2.85100000000000E+0002  1.47949662109375E+0005
 2.85000000000000E+0002  1.63054274414062E+0005
 2.84900000000000E+0002  1.74590041015625E+0005
 2.84800000000000E+0002  1.85227621093750E+0005
 2.84700000000000E+0002  2.04799669921875E+0005
 2.84600000000000E+0002  2.25685330078125E+0005
 2.84500000000000E+0002  2.46737748046875E+0005
 2.84400000000000E+0002  2.67714060546875E+0005
 2.84300000000000E+0002  2.97055630859375E+0005
 2.84200000000000E+0002  3.18645082031250E+0005
 2.84100000000000E+0002  3.42421093750000E+0005
 2.84000000000000E+0002  3.55969648437500E+0005
 2.83900000000000E+0002  3.59570714843750E+0005
 2.83800000000000E+0002  3.52561402343750E+0005
 2.83700000000000E+0002  3.43931375000000E+0005
 2.83600000000000E+0002  3.17569230468750E+0005
 2.83500000000000E+0002  2.97791841796875E+0005
 2.83400000000000E+0002  2.61216343750000E+0005
 2.83300000000000E+0002  2.18164453125000E+0005
 2.83200000000000E+0002  1.87066341796875E+0005
 2.83100000000000E+0002  1.64204698242188E+0005
 2.83000000000000E+0002  1.44662637695312E+0005
 2.82900000000000E+0002  1.25242556640625E+0005
 2.82800000000000E+0002  1.15902903320312E+0005
 2.82700000000000E+0002  1.14498759765625E+0005
 2.82600000000000E+0002  1.12597378906250E+0005
 2.82500000000000E+0002  1.08036802734375E+0005
 2.82400000000000E+0002  1.01644470703125E+0005
 2.82300000000000E+0002  1.03287812500000E+0005
 2.82200000000000E+0002  1.05907623046875E+0005
 2.82100000000000E+0002  1.06011682617187E+0005
 2.82000000000000E+0002  1.04530270507813E+0005
 2.81900000000000E+0002  1.01114900390625E+0005
 2.81800000000000E+0002  1.00210193359375E+0005
 2.81700000000000E+0002  1.02520977539063E+0005
 2.81600000000000E+0002  9.87386708984375E+0004
 2.81500000000000E+0002  1.01789678710937E+0005
 2.81400000000000E+0002  9.97521074218750E+0004
 2.81300000000000E+0002  1.00986515625000E+0005
 2.81200000000000E+0002  9.95728681640625E+0004
 2.81100000000000E+0002  9.85881074218750E+0004
 2.81000000000000E+0002  1.00066198242188E+0005
 2.80900000000000E+0002  1.00987065429688E+0005
 2.80800000000000E+0002  1.03030603515625E+0005
 2.80700000000000E+0002  1.00518666015625E+0005
 2.80600000000000E+0002  1.05031573242187E+0005
 2.80500000000000E+0002  1.03276761718750E+0005
 2.80400000000000E+0002  9.91862011718750E+0004
 2.80300000000000E+0002  1.04576884765625E+0005
 2.80200000000000E+0002  1.05675079101562E+0005
 2.80100000000000E+0002  1.01316356445313E+0005
 2.80000000000000E+0002  1.01871096679688E+0005
 2.79900000000000E+0002  9.81856435546875E+0004
 2.79800000000000E+0002  1.02648241210937E+0005
 2.79700000000000E+0002  1.01450689453125E+0005
 2.79600000000000E+0002  9.72613144531250E+0004
 2.79500000000000E+0002  9.86350966796875E+0004
 2.79400000000000E+0002  9.93887744140625E+0004
 2.79300000000000E+0002  1.05148966796875E+0005
 2.79200000000000E+0002  1.03263267578125E+0005
 2.79100000000000E+0002  1.04374875000000E+0005
 2.79000000000000E+0002  1.03646720703125E+0005
 2.78900000000000E+0002  1.05274410156250E+0005
 2.78800000000000E+0002  1.03899963867187E+0005
 2.78700000000000E+0002  1.04766155273438E+0005
 2.78600000000000E+0002  1.01506527343750E+0005
 2.78500000000000E+0002  1.02563088867188E+0005
 2.78400000000000E+0002  9.80587460937500E+0004
 2.78300000000000E+0002  1.02685148437500E+0005
 2.78200000000000E+0002  1.07659172851563E+0005
 2.78100000000000E+0002  1.06248558593750E+0005
 2.78000000000000E+0002  9.94266083984375E+0004
 2.77900000000000E+0002  1.01457569335937E+0005
 2.77800000000000E+0002  1.00761226562500E+0005
 2.77700000000000E+0002  1.01489708007812E+0005
 2.77600000000000E+0002  9.94703193359375E+0004
 2.77500000000000E+0002  1.02699994140625E+0005
 2.77400000000000E+0002  1.04639094726562E+0005
 2.77300000000000E+0002  1.01619273437500E+0005
 2.77200000000000E+0002  1.03458737304688E+0005
 2.77100000000000E+0002  1.06059290039062E+0005
 2.77000000000000E+0002  9.77684316406250E+0004
 2.76900000000000E+0002  1.00529624023438E+0005
 2.76800000000000E+0002  1.01255591796875E+0005
 2.76700000000000E+0002  9.91675371093750E+0004
 2.76600000000000E+0002  1.03963034179688E+0005
 2.76500000000000E+0002  1.02774267578125E+0005
 2.76400000000000E+0002  1.02062363281250E+0005
 2.76300000000000E+0002  1.00977867187500E+0005
 2.76200000000000E+0002  1.04604856445312E+0005
 2.76100000000000E+0002  1.00229354492187E+0005
 2.76000000000000E+0002  9.80749462890625E+0004
 2.75900000000000E+0002  9.94140556640625E+0004
 2.75800000000000E+0002  1.02407368164062E+0005
 2.75700000000000E+0002  1.00090889648438E+0005
 2.75600000000000E+0002  9.90653828125000E+0004
 2.75500000000000E+0002  1.01364636718750E+0005
 2.75400000000000E+0002  1.01718433593750E+0005
 2.75300000000000E+0002  1.04833443359375E+0005
 2.75200000000000E+0002  1.06292174804688E+0005
 2.75100000000000E+0002  1.00955216796875E+0005
 2.75000000000000E+0002  1.00082642578125E+0005

