[Info]
Number of Regions=0001
Version=1.3.1

[Region 1]
Region Name=S2p_Si2s
Dimension 1 name=Binding Energy [eV]
Dimension 1 size=381
Dimension 1 scale=180 179.9 179.8 179.7 179.6 179.5 179.4 179.3 179.2 179.1 179 178.9 178.8 178.7 178.6 178.5 178.4 178.3 178.2 178.1 178 177.9 177.8 177.7 177.6 177.5 177.4 177.3 177.2 177.1 177 176.9 176.8 176.7 176.6 176.5 176.4 176.3 176.2 176.1 176 175.9 175.8 175.7 175.6 175.5 175.4 175.3 175.2 175.1 175 174.9 174.8 174.7 174.6 174.5 174.4 174.3 174.2 174.1 174 173.9 173.8 173.7 173.6 173.5 173.4 173.3 173.2 173.1 173 172.9 172.8 172.7 172.6 172.5 172.4 172.3 172.2 172.1 172 171.9 171.8 171.7 171.6 171.5 171.4 171.3 171.2 171.1 171 170.9 170.8 170.7 170.6 170.5 170.4 170.3 170.2 170.1 170 169.9 169.8 169.7 169.6 169.5 169.4 169.3 169.2 169.1 169 168.9 168.8 168.7 168.6 168.5 168.4 168.3 168.2 168.1 168 167.9 167.8 167.7 167.6 167.5 167.4 167.3 167.2 167.1 167 166.9 166.8 166.7 166.6 166.5 166.4 166.3 166.2 166.1 166 165.9 165.8 165.7 165.6 165.5 165.4 165.3 165.2 165.1 165 164.9 164.8 164.7 164.6 164.5 164.4 164.3 164.2 164.1 164 163.9 163.8 163.7 163.6 163.5 163.4 163.3 163.2 163.1 163 162.9 162.8 162.7 162.6 162.5 162.4 162.3 162.2 162.1 162 161.9 161.8 161.7 161.6 161.5 161.4 161.3 161.2 161.1 161 160.9 160.8 160.7 160.6 160.5 160.4 160.3 160.2 160.1 160 159.9 159.8 159.7 159.6 159.5 159.4 159.3 159.2 159.1 159 158.9 158.8 158.7 158.6 158.5 158.4 158.3 158.2 158.1 158 157.9 157.8 157.7 157.6 157.5 157.4 157.3 157.2 157.1 157 156.9 156.8 156.7 156.6 156.5 156.4 156.3 156.2 156.1 156 155.9 155.8 155.7 155.6 155.5 155.4 155.3 155.2 155.1 155 154.9 154.8 154.7 154.6 154.5 154.4 154.3 154.2 154.1 154 153.9 153.8 153.7 153.6 153.5 153.4 153.3 153.2 153.1 153 152.9 152.8 152.7 152.6 152.5 152.4 152.3 152.2 152.1 152 151.9 151.8 151.7 151.6 151.5 151.4 151.3 151.2 151.1 151 150.9 150.8 150.7 150.6 150.5 150.4 150.3 150.2 150.1 150 149.9 149.8 149.7 149.6 149.5 149.4 149.3 149.2 149.1 149 148.9 148.8 148.7 148.6 148.5 148.4 148.3 148.2 148.1 148 147.9 147.8 147.7 147.6 147.5 147.4 147.3 147.2 147.1 147 146.9 146.8 146.7 146.6 146.5 146.4 146.3 146.2 146.1 146 145.9 145.8 145.7 145.6 145.5 145.4 145.3 145.2 145.1 145 144.9 144.8 144.7 144.6 144.5 144.4 144.3 144.2 144.1 144 143.9 143.8 143.7 143.6 143.5 143.4 143.3 143.2 143.1 143 142.9 142.8 142.7 142.6 142.5 142.4 142.3 142.2 142.1 142

[Info 1]
Region Name=S2p_Si2s
Lens Mode=Transmission
Pass Energy=100
Number of Sweeps=10
Excitation Energy=1486.6
Energy Scale=Binding
Acquisition Mode=Swept
Energy Unit=Kinetic
Center Energy=1325.6
Low Energy=1306.6
High Energy=1344.6
Energy Step=0.1
Step Time=96
Detector First X-Channel=1
Detector Last X-Channel=1064
Detector First Y-Channel=1
Detector Last Y-Channel=1000
Number of Slices=1
File=C:\Users\Scienta Omicron\Desktop\DATA\ErikX3\S2_3_high_res_test_20001.ibw,.txt
Sequence=D:\SES_1.9.2_Win64\sequences\Rebecka.seq
Spectrum Name=S2_3_high_res_test_2S2p_Si2s001
Instrument=xde-12125
Location=UU
User=Rebecka
Sample=AgS
Comments=Al 250 W;Endast Svavel pass energy 100 eV
Date=2025-03-31
Time=15:18:30
Time per Spectrum Channel=74.88
DetectorMode=ADC
ThetaX=0
ThetaY=0
[Run Mode Information 1]

[User Interface Information 1]
[Manipulator 1]
X=2.302
Y=2.059
Z=152.601
Polar=89.997


[Data 1]
 1.80000000000000E+0002  1.17160716552734E+0004
 1.79900000000000E+0002  1.20944099731445E+0004
 1.79800000000000E+0002  1.17966324462891E+0004
 1.79700000000000E+0002  1.08673643798828E+0004
 1.79600000000000E+0002  1.19223382568359E+0004
 1.79500000000000E+0002  1.10112831420898E+0004
 1.79400000000000E+0002  1.11438159790039E+0004
 1.79300000000000E+0002  1.03549475097656E+0004
 1.79200000000000E+0002  1.08923498535156E+0004
 1.79100000000000E+0002  1.15796282958984E+0004
 1.79000000000000E+0002  1.16439591064453E+0004
 1.78900000000000E+0002  1.13292467041016E+0004
 1.78800000000000E+0002  1.12875514526367E+0004
 1.78700000000000E+0002  1.16020238037109E+0004
 1.78600000000000E+0002  1.13217032470703E+0004
 1.78500000000000E+0002  1.13529525756836E+0004
 1.78400000000000E+0002  1.08803115844727E+0004
 1.78300000000000E+0002  1.11826577148437E+0004
 1.78200000000000E+0002  1.03550836181641E+0004
 1.78100000000000E+0002  1.11819218750000E+0004
 1.78000000000000E+0002  1.08532792968750E+0004
 1.77900000000000E+0002  1.09483411865234E+0004
 1.77800000000000E+0002  1.15692680664063E+0004
 1.77700000000000E+0002  1.12414588012695E+0004
 1.77600000000000E+0002  1.17989354858398E+0004
 1.77500000000000E+0002  1.08615059814453E+0004
 1.77400000000000E+0002  1.17621123657227E+0004
 1.77300000000000E+0002  1.07737918090820E+0004
 1.77200000000000E+0002  1.14877739868164E+0004
 1.77100000000000E+0002  1.08132479248047E+0004
 1.77000000000000E+0002  1.17623116455078E+0004
 1.76900000000000E+0002  1.15701389160156E+0004
 1.76800000000000E+0002  1.13633933105469E+0004
 1.76700000000000E+0002  1.19401828613281E+0004
 1.76600000000000E+0002  1.21488522949219E+0004
 1.76500000000000E+0002  1.12894216918945E+0004
 1.76400000000000E+0002  1.08122389526367E+0004
 1.76300000000000E+0002  1.06983262329102E+0004
 1.76200000000000E+0002  1.12342128906250E+0004
 1.76100000000000E+0002  1.09143093872070E+0004
 1.76000000000000E+0002  1.04773978881836E+0004
 1.75900000000000E+0002  1.08884818725586E+0004
 1.75800000000000E+0002  1.12469265136719E+0004
 1.75700000000000E+0002  1.12323850708008E+0004
 1.75600000000000E+0002  1.16127205200195E+0004
 1.75500000000000E+0002  1.20761427001953E+0004
 1.75400000000000E+0002  1.23632052001953E+0004
 1.75300000000000E+0002  1.12049373168945E+0004
 1.75200000000000E+0002  1.14423808593750E+0004
 1.75100000000000E+0002  1.13006680908203E+0004
 1.75000000000000E+0002  1.18730953369141E+0004
 1.74900000000000E+0002  1.26517833251953E+0004
 1.74800000000000E+0002  1.17488884277344E+0004
 1.74700000000000E+0002  1.10224273681641E+0004
 1.74600000000000E+0002  1.16167991943359E+0004
 1.74500000000000E+0002  1.11920200195313E+0004
 1.74400000000000E+0002  1.15113242187500E+0004
 1.74300000000000E+0002  1.21291270751953E+0004
 1.74200000000000E+0002  1.21525173339844E+0004
 1.74100000000000E+0002  1.07932463378906E+0004
 1.74000000000000E+0002  1.18912119750977E+0004
 1.73900000000000E+0002  1.15337714843750E+0004
 1.73800000000000E+0002  1.14564943847656E+0004
 1.73700000000000E+0002  1.05229149169922E+0004
 1.73600000000000E+0002  1.06444457397461E+0004
 1.73500000000000E+0002  1.18939005737305E+0004
 1.73400000000000E+0002  1.14712316284180E+0004
 1.73300000000000E+0002  1.08195806884766E+0004
 1.73200000000000E+0002  1.19296851196289E+0004
 1.73100000000000E+0002  1.16561867675781E+0004
 1.73000000000000E+0002  1.16172537231445E+0004
 1.72900000000000E+0002  1.14035346679687E+0004
 1.72800000000000E+0002  1.20443832397461E+0004
 1.72700000000000E+0002  1.14774907226563E+0004
 1.72600000000000E+0002  1.07792095336914E+0004
 1.72500000000000E+0002  1.19826480712891E+0004
 1.72400000000000E+0002  1.16079724731445E+0004
 1.72300000000000E+0002  1.22002734375000E+0004
 1.72200000000000E+0002  1.16424311523437E+0004
 1.72100000000000E+0002  1.14857617187500E+0004
 1.72000000000000E+0002  1.23126292724609E+0004
 1.71900000000000E+0002  1.18831285400391E+0004
 1.71800000000000E+0002  1.20796862792969E+0004
 1.71700000000000E+0002  1.28337249755859E+0004
 1.71600000000000E+0002  1.17597153320312E+0004
 1.71500000000000E+0002  1.17531625976562E+0004
 1.71400000000000E+0002  1.38148012695312E+0004
 1.71300000000000E+0002  1.28796060791016E+0004
 1.71200000000000E+0002  1.34458546142578E+0004
 1.71100000000000E+0002  1.33831304931641E+0004
 1.71000000000000E+0002  1.35899135742187E+0004
 1.70900000000000E+0002  1.40897771606445E+0004
 1.70800000000000E+0002  1.31727509765625E+0004
 1.70700000000000E+0002  1.43733110351562E+0004
 1.70600000000000E+0002  1.39682835693359E+0004
 1.70500000000000E+0002  1.32315247802734E+0004
 1.70400000000000E+0002  1.40249566650391E+0004
 1.70300000000000E+0002  1.42203940429688E+0004
 1.70200000000000E+0002  1.45748985595703E+0004
 1.70100000000000E+0002  1.56339379882812E+0004
 1.70000000000000E+0002  1.36757078857422E+0004
 1.69900000000000E+0002  1.52335081787109E+0004
 1.69800000000000E+0002  1.39939064941406E+0004
 1.69700000000000E+0002  1.43787503662109E+0004
 1.69600000000000E+0002  1.62602636718750E+0004
 1.69500000000000E+0002  1.48858901367188E+0004
 1.69400000000000E+0002  1.50106767578125E+0004
 1.69300000000000E+0002  1.53351066894531E+0004
 1.69200000000000E+0002  1.58789483642578E+0004
 1.69100000000000E+0002  1.56415949707031E+0004
 1.69000000000000E+0002  1.48843342285156E+0004
 1.68900000000000E+0002  1.53663040771484E+0004
 1.68800000000000E+0002  1.51226771240234E+0004
 1.68700000000000E+0002  1.62909841308594E+0004
 1.68600000000000E+0002  1.45505096435547E+0004
 1.68500000000000E+0002  1.45338494873047E+0004
 1.68400000000000E+0002  1.31574903564453E+0004
 1.68300000000000E+0002  1.33000987548828E+0004
 1.68200000000000E+0002  1.35506862792969E+0004
 1.68100000000000E+0002  1.23648209228516E+0004
 1.68000000000000E+0002  1.32976987915039E+0004
 1.67900000000000E+0002  1.19499077758789E+0004
 1.67800000000000E+0002  1.18731157836914E+0004
 1.67700000000000E+0002  1.23118889160156E+0004
 1.67600000000000E+0002  1.22371492919922E+0004
 1.67500000000000E+0002  1.10298021850586E+0004
 1.67400000000000E+0002  1.12267528686523E+0004
 1.67300000000000E+0002  1.31535723876953E+0004
 1.67200000000000E+0002  1.23661275024414E+0004
 1.67100000000000E+0002  1.05506915283203E+0004
 1.67000000000000E+0002  1.18961364135742E+0004
 1.66900000000000E+0002  1.23736418457031E+0004
 1.66800000000000E+0002  1.14782223510742E+0004
 1.66700000000000E+0002  1.13356863403320E+0004
 1.66600000000000E+0002  1.15912507324219E+0004
 1.66500000000000E+0002  1.05666392822266E+0004
 1.66400000000000E+0002  1.05455238037109E+0004
 1.66300000000000E+0002  1.01764880371094E+0004
 1.66200000000000E+0002  1.00578969726562E+0004
 1.66100000000000E+0002  1.24137851562500E+0004
 1.66000000000000E+0002  1.03206436157227E+0004
 1.65900000000000E+0002  1.01549494018555E+0004
 1.65800000000000E+0002  1.06775014648438E+0004
 1.65700000000000E+0002  9.94896685791016E+0003
 1.65600000000000E+0002  1.09151325683594E+0004
 1.65500000000000E+0002  1.05466112060547E+0004
 1.65400000000000E+0002  1.13306048583984E+0004
 1.65300000000000E+0002  1.02445196533203E+0004
 1.65200000000000E+0002  1.03971080322266E+0004
 1.65100000000000E+0002  9.94328570556641E+0003
 1.65000000000000E+0002  9.79868652343750E+0003
 1.64900000000000E+0002  9.54859210205078E+0003
 1.64800000000000E+0002  1.04077024536133E+0004
 1.64700000000000E+0002  9.94815814208984E+0003
 1.64600000000000E+0002  9.22492932128906E+0003
 1.64500000000000E+0002  1.07836503906250E+0004
 1.64400000000000E+0002  1.10562119140625E+0004
 1.64300000000000E+0002  1.03889719238281E+0004
 1.64200000000000E+0002  1.10794178466797E+0004
 1.64100000000000E+0002  1.14142348022461E+0004
 1.64000000000000E+0002  1.29824719238281E+0004
 1.63900000000000E+0002  1.56003171386719E+0004
 1.63800000000000E+0002  1.57134437255859E+0004
 1.63700000000000E+0002  1.86449650878906E+0004
 1.63600000000000E+0002  2.00751738281250E+0004
 1.63500000000000E+0002  2.02486572265625E+0004
 1.63400000000000E+0002  1.84180566406250E+0004
 1.63300000000000E+0002  1.71055854492187E+0004
 1.63200000000000E+0002  1.60775723876953E+0004
 1.63100000000000E+0002  1.43168054199219E+0004
 1.63000000000000E+0002  1.36158824462891E+0004
 1.62900000000000E+0002  1.37985786132813E+0004
 1.62800000000000E+0002  1.59611492919922E+0004
 1.62700000000000E+0002  1.88884710693359E+0004
 1.62600000000000E+0002  2.25714913330078E+0004
 1.62500000000000E+0002  2.59873664550781E+0004
 1.62400000000000E+0002  2.82142224121094E+0004
 1.62300000000000E+0002  2.82557658691406E+0004
 1.62200000000000E+0002  2.52578670654297E+0004
 1.62100000000000E+0002  2.22059213867188E+0004
 1.62000000000000E+0002  1.85997221679688E+0004
 1.61900000000000E+0002  1.52816228027344E+0004
 1.61800000000000E+0002  1.29549832763672E+0004
 1.61700000000000E+0002  1.09179357910156E+0004
 1.61600000000000E+0002  1.13895936889648E+0004
 1.61500000000000E+0002  9.11490191650391E+0003
 1.61400000000000E+0002  9.17454870605469E+0003
 1.61300000000000E+0002  9.33131677246094E+0003
 1.61200000000000E+0002  9.11066064453125E+0003
 1.61100000000000E+0002  9.62820190429687E+0003
 1.61000000000000E+0002  9.89326983642578E+0003
 1.60900000000000E+0002  9.04553344726562E+0003
 1.60800000000000E+0002  9.04487438964844E+0003
 1.60700000000000E+0002  9.07453308105469E+0003
 1.60600000000000E+0002  9.35272485351562E+0003
 1.60500000000000E+0002  9.59958331298828E+0003
 1.60400000000000E+0002  9.44244793701172E+0003
 1.60300000000000E+0002  9.25510186767578E+0003
 1.60200000000000E+0002  1.04238364868164E+0004
 1.60100000000000E+0002  8.70062286376953E+0003
 1.60000000000000E+0002  1.01061945800781E+0004
 1.59900000000000E+0002  1.04085636596680E+0004
 1.59800000000000E+0002  1.07712528686523E+0004
 1.59700000000000E+0002  1.01739069213867E+0004
 1.59600000000000E+0002  9.24750488281250E+0003
 1.59500000000000E+0002  9.52497955322266E+0003
 1.59400000000000E+0002  8.79718597412109E+0003
 1.59300000000000E+0002  8.67240844726562E+0003
 1.59200000000000E+0002  8.52357708740234E+0003
 1.59100000000000E+0002  9.99994256591797E+0003
 1.59000000000000E+0002  9.41547735595703E+0003
 1.58900000000000E+0002  9.83029376220703E+0003
 1.58800000000000E+0002  9.40150024414062E+0003
 1.58700000000000E+0002  9.78281628417969E+0003
 1.58600000000000E+0002  8.98569799804687E+0003
 1.58500000000000E+0002  9.83903967285156E+0003
 1.58400000000000E+0002  9.43389941406250E+0003
 1.58300000000000E+0002  9.91697265625000E+0003
 1.58200000000000E+0002  9.43662213134766E+0003
 1.58100000000000E+0002  9.33051684570312E+0003
 1.58000000000000E+0002  9.92407507324219E+0003
 1.57900000000000E+0002  9.87368109130859E+0003
 1.57800000000000E+0002  9.76686608886719E+0003
 1.57700000000000E+0002  1.05758115844727E+0004
 1.57600000000000E+0002  8.75814117431641E+0003
 1.57500000000000E+0002  9.54246856689453E+0003
 1.57400000000000E+0002  1.05004488525391E+0004
 1.57300000000000E+0002  1.00117957153320E+0004
 1.57200000000000E+0002  9.47726562500000E+0003
 1.57100000000000E+0002  9.56765594482422E+0003
 1.57000000000000E+0002  9.10945745849609E+0003
 1.56900000000000E+0002  1.05435181884766E+0004
 1.56800000000000E+0002  1.14674743041992E+0004
 1.56700000000000E+0002  1.11567288818359E+0004
 1.56600000000000E+0002  1.08644163208008E+0004
 1.56500000000000E+0002  1.09086151733398E+0004
 1.56400000000000E+0002  1.10235284423828E+0004
 1.56300000000000E+0002  1.12961346435547E+0004
 1.56200000000000E+0002  1.21261173095703E+0004
 1.56100000000000E+0002  1.12687154541016E+0004
 1.56000000000000E+0002  1.24789906005859E+0004
 1.55900000000000E+0002  1.19959091186523E+0004
 1.55800000000000E+0002  1.13576699218750E+0004
 1.55700000000000E+0002  1.21314509887695E+0004
 1.55600000000000E+0002  1.24580438232422E+0004
 1.55500000000000E+0002  1.22829584350586E+0004
 1.55400000000000E+0002  1.27539144287109E+0004
 1.55300000000000E+0002  1.28486802368164E+0004
 1.55200000000000E+0002  1.14449944458008E+0004
 1.55100000000000E+0002  1.13221405639648E+0004
 1.55000000000000E+0002  1.20207617797852E+0004
 1.54900000000000E+0002  1.14799929199219E+0004
 1.54800000000000E+0002  1.25401943969727E+0004
 1.54700000000000E+0002  1.34310752563477E+0004
 1.54600000000000E+0002  1.16983935546875E+0004
 1.54500000000000E+0002  1.06080451049805E+0004
 1.54400000000000E+0002  1.04161276855469E+0004
 1.54300000000000E+0002  1.10259753417969E+0004
 1.54200000000000E+0002  1.24740644531250E+0004
 1.54100000000000E+0002  1.14819332885742E+0004
 1.54000000000000E+0002  1.09524805908203E+0004
 1.53900000000000E+0002  1.07577698364258E+0004
 1.53800000000000E+0002  1.08259911499023E+0004
 1.53700000000000E+0002  1.04640307617187E+0004
 1.53600000000000E+0002  1.05692561645508E+0004
 1.53500000000000E+0002  1.13861677856445E+0004
 1.53400000000000E+0002  1.18447870483398E+0004
 1.53300000000000E+0002  1.10458236083984E+0004
 1.53200000000000E+0002  1.16134684448242E+0004
 1.53100000000000E+0002  1.25452542724609E+0004
 1.53000000000000E+0002  1.19988784790039E+0004
 1.52900000000000E+0002  1.50730065917969E+0004
 1.52800000000000E+0002  1.46751544189453E+0004
 1.52700000000000E+0002  1.46944713134766E+0004
 1.52600000000000E+0002  1.50218057861328E+0004
 1.52500000000000E+0002  1.65741400146484E+0004
 1.52400000000000E+0002  1.90148038330078E+0004
 1.52300000000000E+0002  2.10909542236328E+0004
 1.52200000000000E+0002  2.22216833496094E+0004
 1.52100000000000E+0002  2.39316470947266E+0004
 1.52000000000000E+0002  2.51464321289062E+0004
 1.51900000000000E+0002  2.60539704589844E+0004
 1.51800000000000E+0002  2.56207275390625E+0004
 1.51700000000000E+0002  2.59551398925781E+0004
 1.51600000000000E+0002  2.28573565673828E+0004
 1.51500000000000E+0002  2.06580184326172E+0004
 1.51400000000000E+0002  1.93002653808594E+0004
 1.51300000000000E+0002  1.66431434326172E+0004
 1.51200000000000E+0002  1.51662869873047E+0004
 1.51100000000000E+0002  1.35485521240234E+0004
 1.51000000000000E+0002  1.33857185058594E+0004
 1.50900000000000E+0002  1.18491361694336E+0004
 1.50800000000000E+0002  1.15593438110352E+0004
 1.50700000000000E+0002  1.13652745361328E+0004
 1.50600000000000E+0002  1.17925435791016E+0004
 1.50500000000000E+0002  1.04628732910156E+0004
 1.50400000000000E+0002  1.00365744018555E+0004
 1.50300000000000E+0002  9.66405859375000E+0003
 1.50200000000000E+0002  1.06708540039063E+0004
 1.50100000000000E+0002  1.02409864501953E+0004
 1.50000000000000E+0002  1.04265504150391E+0004
 1.49900000000000E+0002  9.49764166259766E+0003
 1.49800000000000E+0002  9.41806176757812E+0003
 1.49700000000000E+0002  9.55945837402344E+0003
 1.49600000000000E+0002  8.69785729980469E+0003
 1.49500000000000E+0002  9.28725134277344E+0003
 1.49400000000000E+0002  8.82495898437500E+0003
 1.49300000000000E+0002  9.74570202636719E+0003
 1.49200000000000E+0002  9.11170874023438E+0003
 1.49100000000000E+0002  9.15258496093750E+0003
 1.49000000000000E+0002  8.51382177734375E+0003
 1.48900000000000E+0002  8.89403735351562E+0003
 1.48800000000000E+0002  8.47607183837891E+0003
 1.48700000000000E+0002  8.50930712890625E+0003
 1.48600000000000E+0002  8.73425146484375E+0003
 1.48500000000000E+0002  8.90100469970703E+0003
 1.48400000000000E+0002  9.50646740722656E+0003
 1.48300000000000E+0002  9.47818273925781E+0003
 1.48200000000000E+0002  8.74686962890625E+0003
 1.48100000000000E+0002  8.84469641113281E+0003
 1.48000000000000E+0002  8.59954907226562E+0003
 1.47900000000000E+0002  8.10525592041016E+0003
 1.47800000000000E+0002  8.94628454589844E+0003
 1.47700000000000E+0002  8.33276812744141E+0003
 1.47600000000000E+0002  8.78805914306641E+0003
 1.47500000000000E+0002  9.04876916503906E+0003
 1.47400000000000E+0002  8.61354815673828E+0003
 1.47300000000000E+0002  8.98494097900391E+0003
 1.47200000000000E+0002  8.33872570800781E+0003
 1.47100000000000E+0002  8.27748309326172E+0003
 1.47000000000000E+0002  8.77673614501953E+0003
 1.46900000000000E+0002  8.69323492431641E+0003
 1.46800000000000E+0002  8.09221594238281E+0003
 1.46700000000000E+0002  8.99831677246094E+0003
 1.46600000000000E+0002  8.74242535400391E+0003
 1.46500000000000E+0002  8.80992773437500E+0003
 1.46400000000000E+0002  8.42776446533203E+0003
 1.46300000000000E+0002  8.80308422851562E+0003
 1.46200000000000E+0002  8.04110394287109E+0003
 1.46100000000000E+0002  8.36840179443359E+0003
 1.46000000000000E+0002  8.22244183349609E+0003
 1.45900000000000E+0002  8.41983166503906E+0003
 1.45800000000000E+0002  8.69194018554687E+0003
 1.45700000000000E+0002  9.05531494140625E+0003
 1.45600000000000E+0002  8.26704235839844E+0003
 1.45500000000000E+0002  8.52035198974609E+0003
 1.45400000000000E+0002  8.79143408203125E+0003
 1.45300000000000E+0002  8.66619995117187E+0003
 1.45200000000000E+0002  8.88783746337891E+0003
 1.45100000000000E+0002  8.69038732910156E+0003
 1.45000000000000E+0002  8.53938482666016E+0003
 1.44900000000000E+0002  8.32400903320313E+0003
 1.44800000000000E+0002  7.95370407104492E+0003
 1.44700000000000E+0002  8.66069287109375E+0003
 1.44600000000000E+0002  8.23398449707031E+0003
 1.44500000000000E+0002  9.34316790771484E+0003
 1.44400000000000E+0002  7.73531896972656E+0003
 1.44300000000000E+0002  7.98926599121094E+0003
 1.44200000000000E+0002  9.32268164062500E+0003
 1.44100000000000E+0002  8.95028198242188E+0003
 1.44000000000000E+0002  7.89276800537109E+0003
 1.43900000000000E+0002  8.21237304687500E+0003
 1.43800000000000E+0002  8.87863098144531E+0003
 1.43700000000000E+0002  7.78281994628906E+0003
 1.43600000000000E+0002  7.47975170898438E+0003
 1.43500000000000E+0002  8.62216833496094E+0003
 1.43400000000000E+0002  8.54870819091797E+0003
 1.43300000000000E+0002  8.44382812500000E+0003
 1.43200000000000E+0002  8.15177685546875E+0003
 1.43100000000000E+0002  7.41866674804687E+0003
 1.43000000000000E+0002  8.07876422119141E+0003
 1.42900000000000E+0002  8.99338128662109E+0003
 1.42800000000000E+0002  8.35500805664062E+0003
 1.42700000000000E+0002  8.38444219970703E+0003
 1.42600000000000E+0002  8.52101135253906E+0003
 1.42500000000000E+0002  8.67137750244141E+0003
 1.42400000000000E+0002  8.08894573974609E+0003
 1.42300000000000E+0002  8.24439984130859E+0003
 1.42200000000000E+0002  8.30306970214844E+0003
 1.42100000000000E+0002  8.30775469970703E+0003
 1.42000000000000E+0002  7.92706640625000E+0003

