[Info]
Number of Regions=0001
Version=1.3.1

[Region 1]
Region Name=S2p_Si2s
Dimension 1 name=Binding Energy [eV]
Dimension 1 size=381
Dimension 1 scale=180 179.9 179.8 179.7 179.6 179.5 179.4 179.3 179.2 179.1 179 178.9 178.8 178.7 178.6 178.5 178.4 178.3 178.2 178.1 178 177.9 177.8 177.7 177.6 177.5 177.4 177.3 177.2 177.1 177 176.9 176.8 176.7 176.6 176.5 176.4 176.3 176.2 176.1 176 175.9 175.8 175.7 175.6 175.5 175.4 175.3 175.2 175.1 175 174.9 174.8 174.7 174.6 174.5 174.4 174.3 174.2 174.1 174 173.9 173.8 173.7 173.6 173.5 173.4 173.3 173.2 173.1 173 172.9 172.8 172.7 172.6 172.5 172.4 172.3 172.2 172.1 172 171.9 171.8 171.7 171.6 171.5 171.4 171.3 171.2 171.1 171 170.9 170.8 170.7 170.6 170.5 170.4 170.3 170.2 170.1 170 169.9 169.8 169.7 169.6 169.5 169.4 169.3 169.2 169.1 169 168.9 168.8 168.7 168.6 168.5 168.4 168.3 168.2 168.1 168 167.9 167.8 167.7 167.6 167.5 167.4 167.3 167.2 167.1 167 166.9 166.8 166.7 166.6 166.5 166.4 166.3 166.2 166.1 166 165.9 165.8 165.7 165.6 165.5 165.4 165.3 165.2 165.1 165 164.9 164.8 164.7 164.6 164.5 164.4 164.3 164.2 164.1 164 163.9 163.8 163.7 163.6 163.5 163.4 163.3 163.2 163.1 163 162.9 162.8 162.7 162.6 162.5 162.4 162.3 162.2 162.1 162 161.9 161.8 161.7 161.6 161.5 161.4 161.3 161.2 161.1 161 160.9 160.8 160.7 160.6 160.5 160.4 160.3 160.2 160.1 160 159.9 159.8 159.7 159.6 159.5 159.4 159.3 159.2 159.1 159 158.9 158.8 158.7 158.6 158.5 158.4 158.3 158.2 158.1 158 157.9 157.8 157.7 157.6 157.5 157.4 157.3 157.2 157.1 157 156.9 156.8 156.7 156.6 156.5 156.4 156.3 156.2 156.1 156 155.9 155.8 155.7 155.6 155.5 155.4 155.3 155.2 155.1 155 154.9 154.8 154.7 154.6 154.5 154.4 154.3 154.2 154.1 154 153.9 153.8 153.7 153.6 153.5 153.4 153.3 153.2 153.1 153 152.9 152.8 152.7 152.6 152.5 152.4 152.3 152.2 152.1 152 151.9 151.8 151.7 151.6 151.5 151.4 151.3 151.2 151.1 151 150.9 150.8 150.7 150.6 150.5 150.4 150.3 150.2 150.1 150 149.9 149.8 149.7 149.6 149.5 149.4 149.3 149.2 149.1 149 148.9 148.8 148.7 148.6 148.5 148.4 148.3 148.2 148.1 148 147.9 147.8 147.7 147.6 147.5 147.4 147.3 147.2 147.1 147 146.9 146.8 146.7 146.6 146.5 146.4 146.3 146.2 146.1 146 145.9 145.8 145.7 145.6 145.5 145.4 145.3 145.2 145.1 145 144.9 144.8 144.7 144.6 144.5 144.4 144.3 144.2 144.1 144 143.9 143.8 143.7 143.6 143.5 143.4 143.3 143.2 143.1 143 142.9 142.8 142.7 142.6 142.5 142.4 142.3 142.2 142.1 142

[Info 1]
Region Name=S2p_Si2s
Lens Mode=Transmission
Pass Energy=50
Number of Sweeps=10
Excitation Energy=1486.6
Energy Scale=Binding
Acquisition Mode=Swept
Energy Unit=Kinetic
Center Energy=1325.6
Low Energy=1306.6
High Energy=1344.6
Energy Step=0.1
Step Time=96
Detector First X-Channel=1
Detector Last X-Channel=1064
Detector First Y-Channel=1
Detector Last Y-Channel=1000
Number of Slices=1
File=C:\Users\Scienta Omicron\Desktop\DATA\ErikX3\S2_3_high_res_test0001.ibw,.txt
Sequence=D:\SES_1.9.2_Win64\sequences\Rebecka.seq
Spectrum Name=S2_3_high_res_testS2p_Si2s001
Instrument=xde-12125
Location=UU
User=Rebecka
Sample=AgS
Comments=Al 250 W;Endast Svavel pass energy 50 eV
Date=2025-03-31
Time=15:09:39
Time per Spectrum Channel=38.4
DetectorMode=ADC
ThetaX=0
ThetaY=0
[Run Mode Information 1]

[User Interface Information 1]
[Manipulator 1]
X=2.302
Y=2.059
Z=152.601
Polar=89.997


[Data 1]
 1.80000000000000E+0002  1.89218518829346E+0003
 1.79900000000000E+0002  1.69289971923828E+0003
 1.79800000000000E+0002  1.78317454528809E+0003
 1.79700000000000E+0002  1.62203976440430E+0003
 1.79600000000000E+0002  1.94061975097656E+0003
 1.79500000000000E+0002  1.83799981689453E+0003
 1.79400000000000E+0002  1.87665296936035E+0003
 1.79300000000000E+0002  1.76226901245117E+0003
 1.79200000000000E+0002  1.96979682159424E+0003
 1.79100000000000E+0002  1.73935639953613E+0003
 1.79000000000000E+0002  1.72861170959473E+0003
 1.78900000000000E+0002  1.71163402557373E+0003
 1.78800000000000E+0002  1.85056283569336E+0003
 1.78700000000000E+0002  1.66876338195801E+0003
 1.78600000000000E+0002  1.65210568237305E+0003
 1.78500000000000E+0002  1.86891226196289E+0003
 1.78400000000000E+0002  1.68715876770020E+0003
 1.78300000000000E+0002  1.74089952087402E+0003
 1.78200000000000E+0002  2.02822779846191E+0003
 1.78100000000000E+0002  1.73810032653809E+0003
 1.78000000000000E+0002  1.74192683410645E+0003
 1.77900000000000E+0002  1.74826557159424E+0003
 1.77800000000000E+0002  1.73399114990234E+0003
 1.77700000000000E+0002  2.03537517547607E+0003
 1.77600000000000E+0002  1.58261383056641E+0003
 1.77500000000000E+0002  1.83018074798584E+0003
 1.77400000000000E+0002  1.83126582336426E+0003
 1.77300000000000E+0002  1.71491940307617E+0003
 1.77200000000000E+0002  1.94764381408691E+0003
 1.77100000000000E+0002  1.91504441833496E+0003
 1.77000000000000E+0002  1.68501083374023E+0003
 1.76900000000000E+0002  1.74883504486084E+0003
 1.76800000000000E+0002  2.03967364501953E+0003
 1.76700000000000E+0002  2.14039106750488E+0003
 1.76600000000000E+0002  1.91177957153320E+0003
 1.76500000000000E+0002  1.75911036682129E+0003
 1.76400000000000E+0002  1.79200514984131E+0003
 1.76300000000000E+0002  1.63012216949463E+0003
 1.76200000000000E+0002  1.88021974182129E+0003
 1.76100000000000E+0002  1.90136486816406E+0003
 1.76000000000000E+0002  1.82208300781250E+0003
 1.75900000000000E+0002  1.83127410888672E+0003
 1.75800000000000E+0002  2.04264556884766E+0003
 1.75700000000000E+0002  1.93062562561035E+0003
 1.75600000000000E+0002  1.82596259307861E+0003
 1.75500000000000E+0002  1.64545006561279E+0003
 1.75400000000000E+0002  1.54617514801025E+0003
 1.75300000000000E+0002  1.66577927398682E+0003
 1.75200000000000E+0002  1.78580509948730E+0003
 1.75100000000000E+0002  1.90478495788574E+0003
 1.75000000000000E+0002  2.00425292968750E+0003
 1.74900000000000E+0002  1.70664290618896E+0003
 1.74800000000000E+0002  1.59664945220947E+0003
 1.74700000000000E+0002  1.95389944458008E+0003
 1.74600000000000E+0002  1.95874037170410E+0003
 1.74500000000000E+0002  1.96765407562256E+0003
 1.74400000000000E+0002  1.91458187866211E+0003
 1.74300000000000E+0002  2.06509934997559E+0003
 1.74200000000000E+0002  1.84593135070801E+0003
 1.74100000000000E+0002  2.00735769653320E+0003
 1.74000000000000E+0002  1.76967840576172E+0003
 1.73900000000000E+0002  1.66269562530518E+0003
 1.73800000000000E+0002  2.00725697326660E+0003
 1.73700000000000E+0002  1.88456227874756E+0003
 1.73600000000000E+0002  1.95965896606445E+0003
 1.73500000000000E+0002  2.14208265686035E+0003
 1.73400000000000E+0002  1.88959391784668E+0003
 1.73300000000000E+0002  1.90459459686279E+0003
 1.73200000000000E+0002  1.87948172760010E+0003
 1.73100000000000E+0002  1.70679370880127E+0003
 1.73000000000000E+0002  1.95335166931152E+0003
 1.72900000000000E+0002  1.73283007812500E+0003
 1.72800000000000E+0002  1.92093778991699E+0003
 1.72700000000000E+0002  1.86710052490234E+0003
 1.72600000000000E+0002  1.73732495880127E+0003
 1.72500000000000E+0002  1.99582540130615E+0003
 1.72400000000000E+0002  1.94840200805664E+0003
 1.72300000000000E+0002  2.21712101745605E+0003
 1.72200000000000E+0002  1.67683922576904E+0003
 1.72100000000000E+0002  1.77905033874512E+0003
 1.72000000000000E+0002  2.27940776062012E+0003
 1.71900000000000E+0002  2.00534300231934E+0003
 1.71800000000000E+0002  1.86684455871582E+0003
 1.71700000000000E+0002  1.80190957641602E+0003
 1.71600000000000E+0002  2.03063412475586E+0003
 1.71500000000000E+0002  1.89569992065430E+0003
 1.71400000000000E+0002  1.82829153442383E+0003
 1.71300000000000E+0002  2.08529213714600E+0003
 1.71200000000000E+0002  2.31192590332031E+0003
 1.71100000000000E+0002  1.95134784698486E+0003
 1.71000000000000E+0002  2.32108680725098E+0003
 1.70900000000000E+0002  2.29420530700684E+0003
 1.70800000000000E+0002  2.13617071533203E+0003
 1.70700000000000E+0002  2.26576863098145E+0003
 1.70600000000000E+0002  1.91467007446289E+0003
 1.70500000000000E+0002  2.24263058471680E+0003
 1.70400000000000E+0002  2.26541278076172E+0003
 1.70300000000000E+0002  1.99985144042969E+0003
 1.70200000000000E+0002  2.56973019409180E+0003
 1.70100000000000E+0002  2.16704463195801E+0003
 1.70000000000000E+0002  2.52674406433105E+0003
 1.69900000000000E+0002  2.25270593261719E+0003
 1.69800000000000E+0002  2.35585559844971E+0003
 1.69700000000000E+0002  2.11852226257324E+0003
 1.69600000000000E+0002  2.48398071289062E+0003
 1.69500000000000E+0002  2.34307135009766E+0003
 1.69400000000000E+0002  2.47039891052246E+0003
 1.69300000000000E+0002  2.27399879455566E+0003
 1.69200000000000E+0002  2.08314422607422E+0003
 1.69100000000000E+0002  2.22342021179199E+0003
 1.69000000000000E+0002  2.30228063964844E+0003
 1.68900000000000E+0002  2.41883578491211E+0003
 1.68800000000000E+0002  2.45152914428711E+0003
 1.68700000000000E+0002  2.21002996826172E+0003
 1.68600000000000E+0002  2.17428192138672E+0003
 1.68500000000000E+0002  2.02626622009277E+0003
 1.68400000000000E+0002  1.94644594573975E+0003
 1.68300000000000E+0002  1.94135398101807E+0003
 1.68200000000000E+0002  1.86965178680420E+0003
 1.68100000000000E+0002  1.89581111907959E+0003
 1.68000000000000E+0002  1.99250964355469E+0003
 1.67900000000000E+0002  2.03874044799805E+0003
 1.67800000000000E+0002  1.83830712890625E+0003
 1.67700000000000E+0002  1.78813854980469E+0003
 1.67600000000000E+0002  1.99957064056396E+0003
 1.67500000000000E+0002  2.07734132385254E+0003
 1.67400000000000E+0002  1.73562619018555E+0003
 1.67300000000000E+0002  1.67758459472656E+0003
 1.67200000000000E+0002  2.14983387756348E+0003
 1.67100000000000E+0002  1.80980088806152E+0003
 1.67000000000000E+0002  1.97882558441162E+0003
 1.66900000000000E+0002  2.13827790069580E+0003
 1.66800000000000E+0002  1.76871874237061E+0003
 1.66700000000000E+0002  1.87018189239502E+0003
 1.66600000000000E+0002  1.96966909790039E+0003
 1.66500000000000E+0002  1.91566938781738E+0003
 1.66400000000000E+0002  1.64076813507080E+0003
 1.66300000000000E+0002  1.75461169433594E+0003
 1.66200000000000E+0002  1.80988323974609E+0003
 1.66100000000000E+0002  1.56332109069824E+0003
 1.66000000000000E+0002  1.49519445800781E+0003
 1.65900000000000E+0002  1.58874362945557E+0003
 1.65800000000000E+0002  1.93821844482422E+0003
 1.65700000000000E+0002  1.88259132385254E+0003
 1.65600000000000E+0002  1.67355197143555E+0003
 1.65500000000000E+0002  1.73003846740723E+0003
 1.65400000000000E+0002  1.55884917449951E+0003
 1.65300000000000E+0002  1.64926075744629E+0003
 1.65200000000000E+0002  1.85807255554199E+0003
 1.65100000000000E+0002  1.98209693145752E+0003
 1.65000000000000E+0002  1.61406491851807E+0003
 1.64900000000000E+0002  1.82541421508789E+0003
 1.64800000000000E+0002  1.62397341918945E+0003
 1.64700000000000E+0002  1.82734440612793E+0003
 1.64600000000000E+0002  1.95303857421875E+0003
 1.64500000000000E+0002  1.61920497894287E+0003
 1.64400000000000E+0002  1.75616895294189E+0003
 1.64300000000000E+0002  1.80982344055176E+0003
 1.64200000000000E+0002  1.86465592193604E+0003
 1.64100000000000E+0002  2.17225361633301E+0003
 1.64000000000000E+0002  2.71347961425781E+0003
 1.63900000000000E+0002  2.45871832275391E+0003
 1.63800000000000E+0002  2.94647085571289E+0003
 1.63700000000000E+0002  2.83222108459473E+0003
 1.63600000000000E+0002  3.07962193298340E+0003
 1.63500000000000E+0002  2.76745002746582E+0003
 1.63400000000000E+0002  2.33618353271484E+0003
 1.63300000000000E+0002  2.03676092529297E+0003
 1.63200000000000E+0002  2.02739048004150E+0003
 1.63100000000000E+0002  2.04453292846680E+0003
 1.63000000000000E+0002  2.36061094665527E+0003
 1.62900000000000E+0002  2.49964530944824E+0003
 1.62800000000000E+0002  2.67386975097656E+0003
 1.62700000000000E+0002  3.43298184204102E+0003
 1.62600000000000E+0002  4.01697251892090E+0003
 1.62500000000000E+0002  3.97959143066406E+0003
 1.62400000000000E+0002  3.74777691650391E+0003
 1.62300000000000E+0002  3.64118521118164E+0003
 1.62200000000000E+0002  3.64980816650391E+0003
 1.62100000000000E+0002  2.66595726013184E+0003
 1.62000000000000E+0002  2.08853662109375E+0003
 1.61900000000000E+0002  1.81897541809082E+0003
 1.61800000000000E+0002  1.58719220733643E+0003
 1.61700000000000E+0002  1.57964810180664E+0003
 1.61600000000000E+0002  1.72197878265381E+0003
 1.61500000000000E+0002  1.88630512237549E+0003
 1.61400000000000E+0002  1.54875037384033E+0003
 1.61300000000000E+0002  1.57635209655762E+0003
 1.61200000000000E+0002  1.48657306671143E+0003
 1.61100000000000E+0002  1.52993507385254E+0003
 1.61000000000000E+0002  1.35794895935059E+0003
 1.60900000000000E+0002  1.59516149139404E+0003
 1.60800000000000E+0002  1.55061206054687E+0003
 1.60700000000000E+0002  1.82461843109131E+0003
 1.60600000000000E+0002  1.54907699966431E+0003
 1.60500000000000E+0002  1.69268844604492E+0003
 1.60400000000000E+0002  1.71841889953613E+0003
 1.60300000000000E+0002  1.47235481262207E+0003
 1.60200000000000E+0002  1.53410447692871E+0003
 1.60100000000000E+0002  1.77034116363525E+0003
 1.60000000000000E+0002  1.40135379791260E+0003
 1.59900000000000E+0002  1.41332846832275E+0003
 1.59800000000000E+0002  1.70830478668213E+0003
 1.59700000000000E+0002  1.38885278320312E+0003
 1.59600000000000E+0002  1.44690042877197E+0003
 1.59500000000000E+0002  1.61141248321533E+0003
 1.59400000000000E+0002  1.71613803863525E+0003
 1.59300000000000E+0002  1.27987202453613E+0003
 1.59200000000000E+0002  1.62582444763184E+0003
 1.59100000000000E+0002  1.47079932403564E+0003
 1.59000000000000E+0002  1.62304607391357E+0003
 1.58900000000000E+0002  1.29021548080444E+0003
 1.58800000000000E+0002  1.46323650741577E+0003
 1.58700000000000E+0002  1.42722893524170E+0003
 1.58600000000000E+0002  1.57579869079590E+0003
 1.58500000000000E+0002  1.66970707702637E+0003
 1.58400000000000E+0002  1.45700189971924E+0003
 1.58300000000000E+0002  1.64452753448486E+0003
 1.58200000000000E+0002  1.46581106567383E+0003
 1.58100000000000E+0002  1.52012323760986E+0003
 1.58000000000000E+0002  1.64104226684570E+0003
 1.57900000000000E+0002  1.36605872344971E+0003
 1.57800000000000E+0002  1.57392298126221E+0003
 1.57700000000000E+0002  1.78036492919922E+0003
 1.57600000000000E+0002  1.64507675170898E+0003
 1.57500000000000E+0002  1.52430185699463E+0003
 1.57400000000000E+0002  1.66103303527832E+0003
 1.57300000000000E+0002  1.63074011993408E+0003
 1.57200000000000E+0002  1.68825070190430E+0003
 1.57100000000000E+0002  1.29610359954834E+0003
 1.57000000000000E+0002  1.44939998626709E+0003
 1.56900000000000E+0002  1.87451040649414E+0003
 1.56800000000000E+0002  1.79819065856934E+0003
 1.56700000000000E+0002  1.51898693084717E+0003
 1.56600000000000E+0002  1.64369123840332E+0003
 1.56500000000000E+0002  1.95760545349121E+0003
 1.56400000000000E+0002  1.75201679229736E+0003
 1.56300000000000E+0002  1.84581303405762E+0003
 1.56200000000000E+0002  2.03127650451660E+0003
 1.56100000000000E+0002  2.01456626892090E+0003
 1.56000000000000E+0002  1.51968902587891E+0003
 1.55900000000000E+0002  1.99376940155029E+0003
 1.55800000000000E+0002  2.22044859313965E+0003
 1.55700000000000E+0002  1.94243504333496E+0003
 1.55600000000000E+0002  1.97720445251465E+0003
 1.55500000000000E+0002  2.31062357330322E+0003
 1.55400000000000E+0002  1.91734440612793E+0003
 1.55300000000000E+0002  1.96033325195312E+0003
 1.55200000000000E+0002  1.80017637634277E+0003
 1.55100000000000E+0002  2.06574261474609E+0003
 1.55000000000000E+0002  1.76464440917969E+0003
 1.54900000000000E+0002  1.66144577026367E+0003
 1.54800000000000E+0002  2.09224748229980E+0003
 1.54700000000000E+0002  1.82193946838379E+0003
 1.54600000000000E+0002  1.78782830810547E+0003
 1.54500000000000E+0002  2.04242091369629E+0003
 1.54400000000000E+0002  1.99984817504883E+0003
 1.54300000000000E+0002  1.64190815734863E+0003
 1.54200000000000E+0002  2.02694894409180E+0003
 1.54100000000000E+0002  1.94084538269043E+0003
 1.54000000000000E+0002  1.58686800384521E+0003
 1.53900000000000E+0002  1.78646019744873E+0003
 1.53800000000000E+0002  1.62798361206055E+0003
 1.53700000000000E+0002  1.97256614685059E+0003
 1.53600000000000E+0002  1.88313490295410E+0003
 1.53500000000000E+0002  1.79674618530273E+0003
 1.53400000000000E+0002  1.73252443695068E+0003
 1.53300000000000E+0002  2.06580229187012E+0003
 1.53200000000000E+0002  1.93294505310059E+0003
 1.53100000000000E+0002  2.04095600128174E+0003
 1.53000000000000E+0002  2.31331382751465E+0003
 1.52900000000000E+0002  2.19088914489746E+0003
 1.52800000000000E+0002  2.19866497802734E+0003
 1.52700000000000E+0002  2.71375039672852E+0003
 1.52600000000000E+0002  2.77189241027832E+0003
 1.52500000000000E+0002  2.94210453796387E+0003
 1.52400000000000E+0002  2.90714442443848E+0003
 1.52300000000000E+0002  3.51563684082031E+0003
 1.52200000000000E+0002  3.73857659912109E+0003
 1.52100000000000E+0002  3.99968197631836E+0003
 1.52000000000000E+0002  3.59968797302246E+0003
 1.51900000000000E+0002  3.94262289428711E+0003
 1.51800000000000E+0002  3.57010473632812E+0003
 1.51700000000000E+0002  3.22328063964844E+0003
 1.51600000000000E+0002  3.03793115234375E+0003
 1.51500000000000E+0002  2.84305268859863E+0003
 1.51400000000000E+0002  2.54858862304688E+0003
 1.51300000000000E+0002  2.73111798095703E+0003
 1.51200000000000E+0002  2.05662281799316E+0003
 1.51100000000000E+0002  2.06929257202148E+0003
 1.51000000000000E+0002  1.64071945953369E+0003
 1.50900000000000E+0002  1.94213359832764E+0003
 1.50800000000000E+0002  1.98949665832520E+0003
 1.50700000000000E+0002  1.65447779846191E+0003
 1.50600000000000E+0002  1.85162455749512E+0003
 1.50500000000000E+0002  1.72130155944824E+0003
 1.50400000000000E+0002  1.51620005035400E+0003
 1.50300000000000E+0002  1.61219451904297E+0003
 1.50200000000000E+0002  1.61631535339355E+0003
 1.50100000000000E+0002  1.60950177001953E+0003
 1.50000000000000E+0002  1.50724781799316E+0003
 1.49900000000000E+0002  1.48562245178223E+0003
 1.49800000000000E+0002  1.53931749725342E+0003
 1.49700000000000E+0002  1.33538088226318E+0003
 1.49600000000000E+0002  1.35918007659912E+0003
 1.49500000000000E+0002  1.51520883941650E+0003
 1.49400000000000E+0002  1.27839171600342E+0003
 1.49300000000000E+0002  1.57168685913086E+0003
 1.49200000000000E+0002  1.49006193542480E+0003
 1.49100000000000E+0002  1.67820143127441E+0003
 1.49000000000000E+0002  1.17745056533813E+0003
 1.48900000000000E+0002  1.29635021209717E+0003
 1.48800000000000E+0002  1.51109247589111E+0003
 1.48700000000000E+0002  1.70744281768799E+0003
 1.48600000000000E+0002  1.31603413009644E+0003
 1.48500000000000E+0002  1.31332810211182E+0003
 1.48400000000000E+0002  1.52440007781982E+0003
 1.48300000000000E+0002  1.34306087493896E+0003
 1.48200000000000E+0002  1.32639924621582E+0003
 1.48100000000000E+0002  1.32313633728027E+0003
 1.48000000000000E+0002  1.50911927795410E+0003
 1.47900000000000E+0002  1.51013662719727E+0003
 1.47800000000000E+0002  1.41272893524170E+0003
 1.47700000000000E+0002  1.49182865905762E+0003
 1.47600000000000E+0002  1.52113155364990E+0003
 1.47500000000000E+0002  1.34721189117432E+0003
 1.47400000000000E+0002  1.37798169708252E+0003
 1.47300000000000E+0002  1.29084938049316E+0003
 1.47200000000000E+0002  1.46320477294922E+0003
 1.47100000000000E+0002  1.86207769012451E+0003
 1.47000000000000E+0002  1.57913247680664E+0003
 1.46900000000000E+0002  1.45035323333740E+0003
 1.46800000000000E+0002  1.19202440643311E+0003
 1.46700000000000E+0002  1.49675262451172E+0003
 1.46600000000000E+0002  1.45279873657227E+0003
 1.46500000000000E+0002  1.37474790191650E+0003
 1.46400000000000E+0002  1.48759735870361E+0003
 1.46300000000000E+0002  1.34381507110596E+0003
 1.46200000000000E+0002  1.22326138305664E+0003
 1.46100000000000E+0002  1.45456033325195E+0003
 1.46000000000000E+0002  1.54364402008057E+0003
 1.45900000000000E+0002  1.57183291625977E+0003
 1.45800000000000E+0002  1.44022422027588E+0003
 1.45700000000000E+0002  1.44640167999268E+0003
 1.45600000000000E+0002  1.26837792968750E+0003
 1.45500000000000E+0002  1.63402410125732E+0003
 1.45400000000000E+0002  1.47150521850586E+0003
 1.45300000000000E+0002  1.54213269805908E+0003
 1.45200000000000E+0002  1.47404725646973E+0003
 1.45100000000000E+0002  1.33626287078857E+0003
 1.45000000000000E+0002  1.53724740600586E+0003
 1.44900000000000E+0002  1.32289847564697E+0003
 1.44800000000000E+0002  1.54631207275391E+0003
 1.44700000000000E+0002  1.14835751342773E+0003
 1.44600000000000E+0002  1.30385215377808E+0003
 1.44500000000000E+0002  1.58069070434570E+0003
 1.44400000000000E+0002  1.61486811065674E+0003
 1.44300000000000E+0002  1.37754122924805E+0003
 1.44200000000000E+0002  1.30188491058350E+0003
 1.44100000000000E+0002  1.16621127319336E+0003
 1.44000000000000E+0002  1.39346776580811E+0003
 1.43900000000000E+0002  1.49177510070801E+0003
 1.43800000000000E+0002  1.14550468444824E+0003
 1.43700000000000E+0002  1.44273241424561E+0003
 1.43600000000000E+0002  1.23829293823242E+0003
 1.43500000000000E+0002  1.55289279937744E+0003
 1.43400000000000E+0002  1.53941028594971E+0003
 1.43300000000000E+0002  1.70515107727051E+0003
 1.43200000000000E+0002  1.59812167358398E+0003
 1.43100000000000E+0002  1.34067469787598E+0003
 1.43000000000000E+0002  1.41588874816895E+0003
 1.42900000000000E+0002  1.28266448211670E+0003
 1.42800000000000E+0002  1.26089952087402E+0003
 1.42700000000000E+0002  1.40754899978638E+0003
 1.42600000000000E+0002  1.09885065841675E+0003
 1.42500000000000E+0002  1.17468935012817E+0003
 1.42400000000000E+0002  1.40981646728516E+0003
 1.42300000000000E+0002  1.25917560577393E+0003
 1.42200000000000E+0002  1.35332566070557E+0003
 1.42100000000000E+0002  1.32504817199707E+0003
 1.42000000000000E+0002  1.62694613647461E+0003

